#
#  KX10/MII SDGSAT1/MII RSR
#
#  from RSR_mii.xlsx
#
#  Tabulated QV 2023-01-03
#
# Wavelength (nm)	RSR
#
# BAND 1 DeepBlue1
0.37	0.00743518321540029
0.371	0.0154814047519165
0.372	0.0285411890858747
0.373	0.0406506166384012
0.374	0.0578259627664263
0.375	0.0836042247799235
0.376	0.118131866311178
0.377	0.172346605854436
0.378	0.220054648828589
0.379	0.279526173581274
0.38	0.334983534439167
0.381	0.429031742844324
0.382	0.513290746215638
0.383	0.546673187943326
0.384	0.576383435162008
0.385	0.613208103614073
0.386	0.657387102054666
0.387	0.693572897468167
0.388	0.727132951202427
0.389	0.737694901011129
0.39	0.745103574971817
0.391	0.748848007199914
0.392	0.756289817728992
0.393	0.780526566580976
0.394	0.803479604773522
0.395	0.825631400742392
0.396	0.849294886961224
0.397	0.878172743581944
0.398	0.907552287848091
0.399	0.936422191692397
0.4	0.963194550757601
0.401	0.978016537798552
0.402	0.991316893619024
0.403	0.993556262910835
0.404	0.999717013705948
0.405	0.999638148673179
0.406	1
0.407	0.984474854977809
0.408	0.967235223907106
0.409	0.931751923743478
0.41	0.90349239548892
0.411	0.874727865932095
0.412	0.845493459835497
0.413	0.818017280057684
0.414	0.788968438744071
0.415	0.74217165140065
0.416	0.695698939696085
0.417	0.626220834020917
0.418	0.531368732466613
0.419	0.42822387330697
0.42	0.336580054304208
0.421	0.258021203427382
0.422	0.187666304152609
0.423	0.14631451772707
0.424	0.11405275474234
0.425	0.0923058876391985
0.426	0.0711985563059884
0.427	0.0538098106775302
0.428	0.0347947222724794
0.429	0.0206579994658385
0.43	0.00623630217104169
0.431	0.003283833927472
0.432	0.000243782287443825
0.433	0.000125504355139184
0.434	0
0.435	0
0.436	0
0.437	0
0.438	0
0.439	0
0.44	0
0.441	0
0.442	0
0.443	0
0.444	0
0.445	0
0.446	0
0.447	0
0.448	0
0.449	0
0.45	0
0.451	0
0.452	0
0.453	0
0.454	0
0.455	0
0.456	0
0.457	0
0.458	0
0.459	0
0.46	0
0.461	0
0.462	0
0.463	0
0.464	0
0.465	0
0.466	0
0.467	0
0.468	0
0.469	0
0.47	0
0.471	0
0.472	0
0.473	0
0.474	0
0.475	0
0.476	0
0.477	0
0.478	0
0.479	0
0.48	0
0.481	0
0.482	0
0.483	0
0.484	0
0.485	0
0.486	0
0.487	0
0.488	0
0.489	0
0.49	0
0.491	0
0.492	0
0.493	0
0.494	0
0.495	0
0.496	0
0.497	0
0.498	0
0.499	0
0.5	0
0.501	0
0.502	0
0.503	0
0.504	0
0.505	0
0.506	0
0.507	0
0.508	0
0.509	0
0.51	0
0.511	0
0.512	0
0.513	0
0.514	0
0.515	0
0.516	0
0.517	0
0.518	0
0.519	0
0.52	0
0.521	0
0.522	0
0.523	0
0.524	0
0.525	0
0.526	0
0.527	0
0.528	0
0.529	0
0.53	0
0.531	0
0.532	0
0.533	0
0.534	0
0.535	0
0.536	0
0.537	0
0.538	0
0.539	0
0.54	0
0.541	0
0.542	0
0.543	0
0.544	0
0.545	0
0.546	0
0.547	0
0.548	0
0.549	0
0.55	0
0.551	0
0.552	0
0.553	0
0.554	0
0.555	0
0.556	0
0.557	0
0.558	0
0.559	0
0.56	0
0.561	0
0.562	0
0.563	0
0.564	0
0.565	0
0.566	0
0.567	0
0.568	0
0.569	0
0.57	0
0.571	0
0.572	0
0.573	0
0.574	0
0.575	0
0.576	0
0.577	0
0.578	0
0.579	0
0.58	0
0.581	0
0.582	0
0.583	0
0.584	0
0.585	0
0.586	0
0.587	0
0.588	0
0.589	0
0.59	0
0.591	0
0.592	0
0.593	0
0.594	0
0.595	0
0.596	0
0.597	0
0.598	0
0.599	0
0.6	0
0.601	0
0.602	0
0.603	0
0.604	0
0.605	0
0.606	0
0.607	0
0.608	0
0.609	0
0.61	0
0.611	0
0.612	0
0.613	0
0.614	0
0.615	0
0.616	0
0.617	0
0.618	0
0.619	0
0.62	0
0.621	0
0.622	0
0.623	0
0.624	0
0.625	0
0.626	0
0.627	0
0.628	0
0.629	0
0.63	0
0.631	0
0.632	0
0.633	0
0.634	0
0.635	0
0.636	0
0.637	0
0.638	0
0.639	0
0.64	0
0.641	0
0.642	0
0.643	0
0.644	0
0.645	0
0.646	0
0.647	0
0.648	0
0.649	0
0.65	0
0.651	0
0.652	0
0.653	0
0.654	0
0.655	0
0.656	0
0.657	0
0.658	0
0.659	0
0.66	0
0.661	0
0.662	0
0.663	0
0.664	0
0.665	0
0.666	0
0.667	0
0.668	0
0.669	0
0.67	0
0.671	0
0.672	0
0.673	0
0.674	0
0.675	0
0.676	0
0.677	0
0.678	0
0.679	0
0.68	0
0.681	0
0.682	0
0.683	0
0.684	0
0.685	0
0.686	0
0.687	0
0.688	0
0.689	0
0.69	0
0.691	0
0.692	0
0.693	0
0.694	0
0.695	0
0.696	0
0.697	0
0.698	0
0.699	0
0.7	0
0.701	0
0.702	0
0.703	0
0.704	0
0.705	0
0.706	0
0.707	0
0.708	0
0.709	0
0.71	0
0.711	0
0.712	0
0.713	0
0.714	0
0.715	0
0.716	0
0.717	0
0.718	0
0.719	0
0.72	0
0.721	0
0.722	0
0.723	0
0.724	0
0.725	0
0.726	0
0.727	0
0.728	0
0.729	0
0.73	0
0.731	0
0.732	0
0.733	0
0.734	0
0.735	0
0.736	0
0.737	0
0.738	0
0.739	0
0.74	0
0.741	0
0.742	0
0.743	0
0.744	0
0.745	0
0.746	0
0.747	0
0.748	0
0.749	0
0.75	0
0.751	0
0.752	0
0.753	0
0.754	0
0.755	0
0.756	0
0.757	0
0.758	0
0.759	0
0.76	0
0.761	0
0.762	0
0.763	0
0.764	0
0.765	0
0.766	0
0.767	0
0.768	0
0.769	0
0.77	0
0.771	0
0.772	0
0.773	0
0.774	0
0.775	0
0.776	0
0.777	0
0.778	0
0.779	0
0.78	0
0.781	0
0.782	0
0.783	0
0.784	0
0.785	0
0.786	0
0.787	0
0.788	0
0.789	0
0.79	0
0.791	0
0.792	0
0.793	0
0.794	0
0.795	0
0.796	0
0.797	0
0.798	0
0.799	0
0.8	0
0.801	0
0.802	0
0.803	0
0.804	0
0.805	0
0.806	0
0.807	0
0.808	0
0.809	0
0.81	0
0.811	0
0.812	0
0.813	0
0.814	0
0.815	0
0.816	0
0.817	0
0.818	0
0.819	0
0.82	0
0.821	0
0.822	0
0.823	0
0.824	0
0.825	0
0.826	0
0.827	0
0.828	0
0.829	0
0.83	0
0.831	0
0.832	0
0.833	0
0.834	0
0.835	0
0.836	0
0.837	0
0.838	0
0.839	0
0.84	0
0.841	0
0.842	0
0.843	0
0.844	0
0.845	0
0.846	0
0.847	0
0.848	0
0.849	0
0.85	0
0.851	0
0.852	0
0.853	0
0.854	0
0.855	0
0.856	0
0.857	0
0.858	0
0.859	0
0.86	0
0.861	0
0.862	0
0.863	0
0.864	0
0.865	0
0.866	0
0.867	0
0.868	0
0.869	0
0.87	0
0.871	0
0.872	0
0.873	0
0.874	0
0.875	0
0.876	0
0.877	0
0.878	0
0.879	0
0.88	0
0.881	0
0.882	0
0.883	0
0.884	0
0.885	0
0.886	0
0.887	0
0.888	0
0.889	0
0.89	0
0.891	0
0.892	0
0.893	0
0.894	0
0.895	0
0.896	0
0.897	0
0.898	0
0.899	0
0.9	0
0.901	0
0.902	0
0.903	0
0.904	0
0.905	0
0.906	0
0.907	0
0.908	0
0.909	0
0.91	0
0.911	0
0.912	0
0.913	0
0.914	0
0.915	0
0.916	0
0.917	0
0.918	0
0.919	0
0.92	0
0.921	0
0.922	0
0.923	0
0.924	0
0.925	0
0.926	0
0.927	0
0.928	0
0.929	0
0.93	0
0.931	0
0.932	0
0.933	0
0.934	0
0.935	0
0.936	0
0.937	0
0.938	0
0.939	0
0.94	0
0.941	0
0.942	0
0.943	0
0.944	0
0.945	0
0.946	0
0.947	0
0.948	0
0.949	0
0.95	0
0.951	0
0.952	0
0.953	0
0.954	0
0.955	0
0.956	0
0.957	0
0.958	0
0.959	0
0.96	0
0.961	0
0.962	0
0.963	0
0.964	0
0.965	0
0.966	0
0.967	0
0.968	0
0.969	0
0.97	0
0.971	0
0.972	0
0.973	0
0.974	0
0.975	0
0.976	0
0.977	0
0.978	0
0.979	0
0.98	0
0.981	0
0.982	0
0.983	0
0.984	0
0.985	0
0.986	0
0.987	0
0.988	0
0.989	0
0.99	0
0.991	0
0.992	0
0.993	0
0.994	0
0.995	0
0.996	0
0.997	0
0.998	0
0.999	0
1	0
# BAND 2 DeepBlue2
0.37	0
0.371	0
0.372	0
0.373	0
0.374	0
0.375	0
0.376	0
0.377	0
0.378	0
0.379	0
0.38	0
0.381	0
0.382	0
0.383	0
0.384	0
0.385	0
0.386	0
0.387	0
0.388	0
0.389	0
0.39	0
0.391	0
0.392	0
0.393	0
0.394	0
0.395	0
0.396	0
0.397	0
0.398	0
0.399	0
0.4	0
0.401	0.00302873345120813
0.402	0.00622075854848096
0.403	0.00649966067995948
0.404	0.00741409389792182
0.405	0.00827953962206475
0.406	0.00946242430615747
0.407	0.0159908149102255
0.408	0.0205760537373212
0.409	0.0468921354171089
0.41	0.0646145043478034
0.411	0.0870925791784863
0.412	0.112166991181598
0.413	0.178779532110649
0.414	0.248734979617937
0.415	0.323198582889779
0.416	0.42595540309196
0.417	0.537467268189546
0.418	0.639246951181676
0.419	0.720575988420663
0.42	0.795922019747839
0.421	0.84442486396173
0.422	0.89377878423491
0.423	0.91449265612151
0.424	0.931484131644419
0.425	0.935520701135138
0.426	0.934424034440168
0.427	0.933702938531146
0.428	0.934265968126777
0.429	0.93571273211091
0.43	0.938318866782103
0.431	0.93800404048849
0.432	0.93701318678017
0.433	0.937829645010493
0.434	0.942367846437924
0.435	0.958101976286134
0.436	0.97357157366772
0.437	0.982162673750476
0.438	0.985404992674737
0.439	0.987674093388452
0.44	0.985719165801765
0.441	0.979824990545414
0.442	0.974486660052267
0.443	0.970430495564019
0.444	0.970506262887793
0.445	0.970460541226895
0.446	0.976095409349296
0.447	0.988218834319724
0.448	1
0.449	0.994457881532564
0.45	0.983297877273918
0.451	0.953327328555202
0.452	0.925936787844309
0.453	0.889439798615679
0.454	0.859221046594945
0.455	0.833997059444038
0.456	0.790694727574015
0.457	0.715812444521663
0.458	0.629970026185448
0.459	0.531297456634638
0.46	0.452794018039155
0.461	0.400569430628157
0.462	0.360683159993808
0.463	0.313446805786795
0.464	0.247349928902817
0.465	0.170283980371038
0.466	0.135450420410672
0.467	0.0862421562857813
0.468	0.0372690321312238
0.469	0.0175329506212594
0.47	0.00719267042585808
0.471	0.00473480456929216
0.472	0.002889608968761
0.473	0.00227040704688364
0.474	0.00183539810176727
0.475	0.00180992460498118
0.476	0.00179816760646452
0.477	0.00161985312896186
0.478	0.00146178681557123
0.479	0.00143500698561662
0.48	0.00145911562550825
0.481	0.00140759907067458
0.482	0.00139433613128126
0.483	0.000698926912618721
0.484	0
0.485	0
0.486	0
0.487	0
0.488	0
0.489	0
0.49	0
0.491	0
0.492	0
0.493	0
0.494	0
0.495	0
0.496	0
0.497	0
0.498	0
0.499	0
0.5	0
0.501	0
0.502	0
0.503	0
0.504	0
0.505	0
0.506	0
0.507	0
0.508	0
0.509	0
0.51	0
0.511	0
0.512	0
0.513	0
0.514	0
0.515	0
0.516	0
0.517	0
0.518	0
0.519	0
0.52	0
0.521	0
0.522	0
0.523	0
0.524	0
0.525	0
0.526	0
0.527	0
0.528	0
0.529	0
0.53	0
0.531	0
0.532	0
0.533	0
0.534	0
0.535	0
0.536	0
0.537	0
0.538	0
0.539	0
0.54	0
0.541	0
0.542	0
0.543	0
0.544	0
0.545	0
0.546	0
0.547	0
0.548	0
0.549	0
0.55	0
0.551	0
0.552	0
0.553	0
0.554	0
0.555	0
0.556	0
0.557	0
0.558	0
0.559	0
0.56	0
0.561	0
0.562	0
0.563	0
0.564	0
0.565	0
0.566	0
0.567	0
0.568	0
0.569	0
0.57	0
0.571	0
0.572	0
0.573	0
0.574	0
0.575	0
0.576	0
0.577	0
0.578	0
0.579	0
0.58	0
0.581	0
0.582	0
0.583	0
0.584	0
0.585	0
0.586	0
0.587	0
0.588	0
0.589	0
0.59	0
0.591	0
0.592	0
0.593	0
0.594	0
0.595	0
0.596	0
0.597	0
0.598	0
0.599	0
0.6	0
0.601	0
0.602	0
0.603	0
0.604	0
0.605	0
0.606	0
0.607	0
0.608	0
0.609	0
0.61	0
0.611	0
0.612	0
0.613	0
0.614	0
0.615	0
0.616	0
0.617	0
0.618	0
0.619	0
0.62	0
0.621	0
0.622	0
0.623	0
0.624	0
0.625	0
0.626	0
0.627	0
0.628	0
0.629	0
0.63	0
0.631	0
0.632	0
0.633	0
0.634	0
0.635	0
0.636	0
0.637	0
0.638	0
0.639	0
0.64	0
0.641	0
0.642	0
0.643	0
0.644	0
0.645	0
0.646	0
0.647	0
0.648	0
0.649	0
0.65	0
0.651	0
0.652	0
0.653	0
0.654	0
0.655	0
0.656	0
0.657	0
0.658	0
0.659	0
0.66	0
0.661	0
0.662	0
0.663	0
0.664	0
0.665	0
0.666	0
0.667	0
0.668	0
0.669	0
0.67	0
0.671	0
0.672	0
0.673	0
0.674	0
0.675	0
0.676	0
0.677	0
0.678	0
0.679	0
0.68	0
0.681	0
0.682	0
0.683	0
0.684	0
0.685	0
0.686	0
0.687	0
0.688	0
0.689	0
0.69	0
0.691	0
0.692	0
0.693	0
0.694	0
0.695	0
0.696	0
0.697	0
0.698	0
0.699	0
0.7	0
0.701	0
0.702	0
0.703	0
0.704	0
0.705	0
0.706	0
0.707	0
0.708	0
0.709	0
0.71	0
0.711	0
0.712	0
0.713	0
0.714	0
0.715	0
0.716	0
0.717	0
0.718	0
0.719	0
0.72	0
0.721	0
0.722	0
0.723	0
0.724	0
0.725	0
0.726	0
0.727	0
0.728	0
0.729	0
0.73	0
0.731	0
0.732	0
0.733	0
0.734	0
0.735	0
0.736	0
0.737	0
0.738	0
0.739	0
0.74	0
0.741	0
0.742	0
0.743	0
0.744	0
0.745	0
0.746	0
0.747	0
0.748	0
0.749	0
0.75	0
0.751	0
0.752	0
0.753	0
0.754	0
0.755	0
0.756	0
0.757	0
0.758	0
0.759	0
0.76	0
0.761	0
0.762	0
0.763	0
0.764	0
0.765	0
0.766	0
0.767	0
0.768	0
0.769	0
0.77	0
0.771	0
0.772	0
0.773	0
0.774	0
0.775	0
0.776	0
0.777	0
0.778	0
0.779	0
0.78	0
0.781	0
0.782	0
0.783	0
0.784	0
0.785	0
0.786	0
0.787	0
0.788	0
0.789	0
0.79	0
0.791	0
0.792	0
0.793	0
0.794	0
0.795	0
0.796	0
0.797	0
0.798	0
0.799	0
0.8	0
0.801	0
0.802	0
0.803	0
0.804	0
0.805	0
0.806	0
0.807	0
0.808	0
0.809	0
0.81	0
0.811	0
0.812	0
0.813	0
0.814	0
0.815	0
0.816	0
0.817	0
0.818	0
0.819	0
0.82	0
0.821	0
0.822	0
0.823	0
0.824	0
0.825	0
0.826	0
0.827	0
0.828	0
0.829	0
0.83	0
0.831	0
0.832	0
0.833	0
0.834	0
0.835	0
0.836	0
0.837	0
0.838	0
0.839	0
0.84	0
0.841	0
0.842	0
0.843	0
0.844	0
0.845	0
0.846	0
0.847	0
0.848	0
0.849	0
0.85	0
0.851	0
0.852	0
0.853	0
0.854	0
0.855	0
0.856	0
0.857	0
0.858	0
0.859	0
0.86	0
0.861	0
0.862	0
0.863	0
0.864	0
0.865	0
0.866	0
0.867	0
0.868	0
0.869	0
0.87	0
0.871	0
0.872	0
0.873	0
0.874	0
0.875	0
0.876	0
0.877	0
0.878	0
0.879	0
0.88	0
0.881	0
0.882	0
0.883	0
0.884	0
0.885	0
0.886	0
0.887	0
0.888	0
0.889	0
0.89	0
0.891	0
0.892	0
0.893	0
0.894	0
0.895	0
0.896	0
0.897	0
0.898	0
0.899	0
0.9	0
0.901	0
0.902	0
0.903	0
0.904	0
0.905	0
0.906	0
0.907	0
0.908	0
0.909	0
0.91	0
0.911	0
0.912	0
0.913	0
0.914	0
0.915	0
0.916	0
0.917	0
0.918	0
0.919	0
0.92	0
0.921	0
0.922	0
0.923	0
0.924	0
0.925	0
0.926	0
0.927	0
0.928	0
0.929	0
0.93	0
0.931	0
0.932	0
0.933	0
0.934	0
0.935	0
0.936	0
0.937	0
0.938	0
0.939	0
0.94	0
0.941	0
0.942	0
0.943	0
0.944	0
0.945	0
0.946	0
0.947	0
0.948	0
0.949	0
0.95	0
0.951	0
0.952	0
0.953	0
0.954	0
0.955	0
0.956	0
0.957	0
0.958	0
0.959	0
0.96	0
0.961	0
0.962	0
0.963	0
0.964	0
0.965	0
0.966	0
0.967	0
0.968	0
0.969	0
0.97	0
0.971	0
0.972	0
0.973	0
0.974	0
0.975	0
0.976	0
0.977	0
0.978	0
0.979	0
0.98	0
0.981	0
0.982	0
0.983	0
0.984	0
0.985	0
0.986	0
0.987	0
0.988	0
0.989	0
0.99	0
0.991	0
0.992	0
0.993	0
0.994	0
0.995	0
0.996	0
0.997	0
0.998	0
0.999	0
1	0
# BAND 3 Blue
0.37	0
0.371	0
0.372	0
0.373	0
0.374	0
0.375	0
0.376	0
0.377	0
0.378	0
0.379	0
0.38	0
0.381	0
0.382	0
0.383	0
0.384	0
0.385	0
0.386	0
0.387	0
0.388	0
0.389	0
0.39	0
0.391	0
0.392	0
0.393	0
0.394	0
0.395	0
0.396	0
0.397	0
0.398	0
0.399	0
0.4	0
0.401	0
0.402	0
0.403	0
0.404	0
0.405	0
0.406	0
0.407	0
0.408	0
0.409	0
0.41	0
0.411	0
0.412	0
0.413	0
0.414	0
0.415	0
0.416	0
0.417	0
0.418	0
0.419	0
0.42	0
0.421	0
0.422	0
0.423	0
0.424	0
0.425	0
0.426	0
0.427	0
0.428	0
0.429	0
0.43	0
0.431	0
0.432	0
0.433	0
0.434	0
0.435	0
0.436	0
0.437	0.00172472526615248
0.438	0.00228186418552401
0.439	0.00293456835710979
0.44	0.00248794707635339
0.441	0.00201834852842514
0.442	0.00155197657546144
0.443	0.00204636123925378
0.444	0.00210443474778575
0.445	0.00216904153902963
0.446	0.00227267223848926
0.447	0.00260662273698882
0.448	0.003046085595261
0.449	0.00356059019019436
0.45	0.00426688059414283
0.451	0.00559804448790027
0.452	0.00749289722639733
0.453	0.0108866375073462
0.454	0.0161544282467482
0.455	0.0254951190209958
0.456	0.0404078490927152
0.457	0.0646892244002143
0.458	0.0979940398487599
0.459	0.139396547689011
0.46	0.186705248157606
0.461	0.237280720002912
0.462	0.291840027668416
0.463	0.351323871289858
0.464	0.418750032505188
0.465	0.492769546019545
0.466	0.570155946889123
0.467	0.647528045476058
0.468	0.717781507928665
0.469	0.772741929611966
0.47	0.809528700780645
0.471	0.829947159566667
0.472	0.839431523271114
0.473	0.842261424923418
0.474	0.84291282888749
0.475	0.843756013459748
0.476	0.843719607649381
0.477	0.845835045273226
0.478	0.852537615003355
0.479	0.862441945734539
0.48	0.876270302740317
0.481	0.893238010786521
0.482	0.908590210997675
0.483	0.923499690550612
0.484	0.935169703084612
0.485	0.944315362731892
0.486	0.953031303796086
0.487	0.959710469790979
0.488	0.966231660573028
0.489	0.968903587012487
0.49	0.971076233766909
0.491	0.971711385137068
0.492	0.972557170124352
0.493	0.976858906681506
0.494	0.981001367818304
0.495	0.985688615903098
0.496	0.988923532195738
0.497	0.990846539107642
0.498	0.992794900066051
0.499	0.990293300810809
0.5	0.988741503143902
0.501	0.985765328146372
0.502	0.983253977334783
0.503	0.981416784118745
0.504	0.98215465188244
0.505	0.984635447817472
0.506	0.989795321333285
0.507	0.995202234276591
0.508	0.999469515334648
0.509	1
0.51	0.995980408473192
0.511	0.994615840688174
0.512	0.990392766685563
0.513	0.981319918659018
0.514	0.963548682369706
0.515	0.927658404281323
0.516	0.875256790983841
0.517	0.811166962247175
0.518	0.74595440432293
0.519	0.689022868049741
0.52	0.640339198136023
0.521	0.596461745294549
0.522	0.544672529735746
0.523	0.482395840376124
0.524	0.407672264493413
0.525	0.326099195431591
0.526	0.245840636165532
0.527	0.175239368203165
0.528	0.11650639442055
0.529	0.0732393890064854
0.53	0.0443832335640768
0.531	0.0271307800724996
0.532	0.0169982629227625
0.533	0.0111096230958461
0.534	0.00758699272403876
0.535	0.00543616345168689
0.536	0.00404709455629118
0.537	0.00314454042865241
0.538	0.00252941329436178
0.539	0.00211449107277522
0.54	0.00181357520660297
0.541	0.0015930423295558
0.542	0.00143709023960224
0.543	0.00133005715712228
0.544	0.0012514174862308
0.545	0.00119210930064438
0.546	0.00114531431216422
0.547	0.00110727752149243
0.548	0.00107722712544922
0.549	0.00105353526422817
0.55	0.0010304955870957
0.551	0.00100897351217254
0.552	0.000993092257524301
0.553	0.000992332936336639
0.554	0.000990333737264467
0.555	0.000993218117611571
0.556	0.00100132413133136
0.557	0.00100671427159775
0.558	0.00100460273459644
0.559	0.00100947175169157
0.56	0.00100459961409841
0.561	0.00100177764371194
0.562	0.00100739454016861
0.563	0.000994496481638469
0.564	0.000994884463560384
0.565	0.000988941995142425
0.566	0.000980330460741534
0.567	0.000963034580319019
0.568	0.000968882393630023
0.569	0.000948452493017886
0.57	0.000922919537958258
0.571	0.00090992370382313
0.572	0.00090116550601476
0.573	0.000875225846045029
0.574	0.000864798181789814
0.575	0.000851365477930278
0.576	0.000842156888239363
0.577	0.000839569995371261
0.578	0.000820952063949406
0.579	0.000806726753589873
0.58	0.000800917426421257
0.581	0.00080932508828409
0.582	0.000809689146387763
0.583	0.000819323163976971
0.584	0.000808538722780156
0.585	0.000804778522652215
0.586	0.000801546726857606
0.587	0.000793148426488868
0.588	0.000789953036504626
0.589	0.000780219162978411
0.59	0.000776164595869501
0.591	0.000778027533194298
0.592	0.000783548734378007
0.593	0.000786966719888494
0.594	0.000791249083353703
0.595	0.000794953114517077
0.596	0.000802109456669284
0.597	0.000810769878872668
0.598	0.000810884297133823
0.599	0.000815999833573438
0.6	0.000821949583153471
0.601	0.000819941022587205
0.602	0.000829416934942817
0.603	0.000838436214419821
0.604	0.000837072556780062
0.605	0.000843668249452613
0.606	0.000850961893518206
0.607	0.000872335224701862
0.608	0.000892588297092216
0.609	0.000915711187505526
0.61	0.000947584994565133
0.611	0.000980158833349803
0.612	0.00101837037191136
0.613	0.00105832730903852
0.614	0.00109412982311977
0.615	0.001135876885951
0.616	0.00119058649760502
0.617	0.00124314088528529
0.618	0.00131457740655409
0.619	0.00136886887147189
0.62	0.00141119322643894
0.621	0.00144746901605496
0.622	0.00146519240470779
0.623	0.0014641626403574
0.624	0.00146319008513759
0.625	0.00145295485159431
0.626	0.0014565611071527
0.627	0.00143378043135684
0.628	0.00139035037992064
0.629	0.00132403563608752
0.63	0.00121996702673747
0.631	0.00111784872865709
0.632	0.00100733421054
0.633	0.000897856737935375
0.634	0.000789297731918014
0.635	0.000684812015997753
0.636	0.000589085538051873
0.637	0.000512841369482569
0.638	0.000458651840833797
0.639	0.000412452867477649
0.64	0.000372751811189066
0.641	0.000359941126603806
0.642	0.000350191650587434
0.643	0.000333983783811896
0.644	0.000315133895369701
0.645	0.000294620781476724
0.646	0.000273988048492539
0.647	0.000249681449159286
0.648	0.000225926137811595
0.649	0.00019319627412535
0.65	0.000172344066112952
0.651	0.000155192768765895
0.652	0.000143708295844017
0.653	0.000146443932451619
0.654	0.000138159010178024
0.655	0.000145903046126162
0.656	0.000163442325395133
0.657	0.000187977761250696
0.658	0.000222118090047172
0.659	0.000252632400131061
0.66	0.000305273121590206
0.661	0.000364336868164159
0.662	0.000422362529059638
0.663	0.000477850184889508
0.664	0.000521418578405113
0.665	0.00056150449611758
0.666	0.000589998803809088
0.667	0.000606687227281474
0.668	0.000616765395757163
0.669	0.000604831571118751
0.67	0.000595251642162089
0.671	0.000568142835596561
0.672	0.000557909682385309
0.673	0.000554664364432563
0.674	0.000557259578628749
0.675	0.000599227156654202
0.676	0.000663715368972888
0.677	0.000746797588895188
0.678	0.000850205692828575
0.679	0.000967310702788165
0.68	0.0011012289561414
0.681	0.00124725994268685
0.682	0.00142404655783063
0.683	0.00162246134483064
0.684	0.00181251631760429
0.685	0.00193584880146871
0.686	0.00197846544308472
0.687	0.00194706075089584
0.688	0.00187188171232129
0.689	0.00177126749429209
0.69	0.00165033155291585
0.691	0.0015472146954654
0.692	0.00142608216271317
0.693	0.00131323143173651
0.694	0.00119931973142914
0.695	0.00108493891625103
0.696	0.00100015706506758
0.697	0.000894752882560057
0.698	0.000802010640898287
0.699	0.000716001393822454
0.7	0.000616998392943514
0.701	0.000548274624630091
0.702	0.000484137988422952
0.703	0.000420989509925784
0.704	0.000372915117252714
0.705	0.000328958741815194
0.706	0.000291957956489856
0.707	0.000273309860253696
0.708	0.000251626559598912
