;; SUOMI-NPP_VIIRS_TIR RSR
;;
;; Quinten Vanhellemont 2023-04-19
;; from NG_VIIRS_NPP_RSR_filtered_Oct2011_BA
;; M16 is average of M16A and M16B
;;
;;
;; datasets: wavelength, RSR
;;
;; BAND I04
;;
3473.0	0.0102129
3474.0	0.0106788
3475.0	0.0111706
3476.0	0.0117164
3477.0	0.0123163
3478.0	0.0129569
3479.0	0.0136199
3480.0	0.0143193
3481.0	0.0150517
3482.0	0.015819
3483.0	0.0166233
3484.0	0.017486
3485.0	0.0184079
3486.0	0.0193733
3487.0	0.0203896
3488.0	0.0214632
3489.0	0.0225633
3490.0	0.023685
3491.0	0.0248624
3492.0	0.0261224
3493.0	0.0274672
3494.0	0.0289132
3495.0	0.030415
3496.0	0.0320427
3497.0	0.0338001
3498.0	0.0356587
3499.0	0.0376378
3500.0	0.0398077
3501.0	0.0421407
3502.0	0.0446198
3503.0	0.047182
3504.0	0.049917
3505.0	0.0528308
3506.0	0.0558601
3507.0	0.0591248
3508.0	0.0626122
3509.0	0.0662158
3510.0	0.0699683
3511.0	0.073806
3512.0	0.0779794
3513.0	0.0825903
3514.0	0.0875699
3515.0	0.092932
3516.0	0.0987617
3517.0	0.1048584
3518.0	0.1111659
3519.0	0.1176164
3520.0	0.1243304
3521.0	0.1313404
3522.0	0.1385829
3523.0	0.1463132
3524.0	0.1546956
3525.0	0.1635484
3526.0	0.1727577
3527.0	0.182248
3528.0	0.1920342
3529.0	0.2020151
3530.0	0.2122044
3531.0	0.2228937
3532.0	0.2344186
3533.0	0.2467166
3534.0	0.2597557
3535.0	0.2730074
3536.0	0.2866013
3537.0	0.3003879
3538.0	0.3141626
3539.0	0.3280597
3540.0	0.3424233
3541.0	0.3575003
3542.0	0.3732122
3543.0	0.389192
3544.0	0.4054123
3545.0	0.421617
3546.0	0.4377287
3547.0	0.4540128
3548.0	0.470156
3549.0	0.4859113
3550.0	0.5015328
3551.0	0.5165475
3552.0	0.530728
3553.0	0.5442472
3554.0	0.5569906
3555.0	0.5696844
3556.0	0.5818396
3557.0	0.5932464
3558.0	0.6042405
3559.0	0.6142206
3560.0	0.6234223
3561.0	0.6326026
3562.0	0.6416105
3563.0	0.6508686
3564.0	0.6606962
3565.0	0.6711336
3566.0	0.6819183
3567.0	0.692486
3568.0	0.7022889
3569.0	0.7110124
3570.0	0.7190685
3571.0	0.7267314
3572.0	0.7332577
3573.0	0.7383384
3574.0	0.7422248
3575.0	0.7456131
3576.0	0.7488739
3577.0	0.7528743
3578.0	0.7575197
3579.0	0.7618655
3580.0	0.76622
3581.0	0.7705567
3582.0	0.7746491
3583.0	0.7797664
3584.0	0.7855893
3585.0	0.7914489
3586.0	0.7977141
3587.0	0.8021694
3588.0	0.8046432
3589.0	0.8058494
3590.0	0.8057716
3591.0	0.8067526
3592.0	0.8086834
3593.0	0.8111885
3594.0	0.8140756
3595.0	0.8161732
3596.0	0.8173264
3597.0	0.8177599
3598.0	0.8176281
3599.0	0.8171778
3600.0	0.8167287
3601.0	0.8168555
3602.0	0.8177572
3603.0	0.8191649
3604.0	0.8211499
3605.0	0.8230056
3606.0	0.8240715
3607.0	0.8259162
3608.0	0.8277118
3609.0	0.8289482
3610.0	0.8303925
3611.0	0.8302335
3612.0	0.8292383
3613.0	0.8288311
3614.0	0.8285691
3615.0	0.8290133
3616.0	0.8297454
3617.0	0.8298786
3618.0	0.8297397
3619.0	0.829471
3620.0	0.8286794
3621.0	0.8273483
3622.0	0.8256547
3623.0	0.8236891
3624.0	0.8230078
3625.0	0.8247182
3626.0	0.8281158
3627.0	0.8319985
3628.0	0.8352697
3629.0	0.8364932
3630.0	0.8355666
3631.0	0.834592
3632.0	0.8336717
3633.0	0.833349
3634.0	0.834465
3635.0	0.8354992
3636.0	0.8355576
3637.0	0.8340363
3638.0	0.8309677
3639.0	0.8272626
3640.0	0.8239695
3641.0	0.8221049
3642.0	0.8211216
3643.0	0.8205585
3644.0	0.8204637
3645.0	0.8206905
3646.0	0.821262
3647.0	0.8217806
3648.0	0.8221617
3649.0	0.8221713
3650.0	0.8220031
3651.0	0.8221291
3652.0	0.8218637
3653.0	0.8208122
3654.0	0.8191139
3655.0	0.8165832
3656.0	0.8136526
3657.0	0.8112825
3658.0	0.8097822
3659.0	0.8083654
3660.0	0.8070381
3661.0	0.8056056
3662.0	0.803943
3663.0	0.8025116
3664.0	0.8018636
3665.0	0.8023992
3666.0	0.8043299
3667.0	0.8065032
3668.0	0.8095561
3669.0	0.8133079
3670.0	0.8167855
3671.0	0.821444
3672.0	0.8273834
3673.0	0.8339598
3674.0	0.8409799
3675.0	0.848638
3676.0	0.8560383
3677.0	0.8625634
3678.0	0.868286
3679.0	0.8739612
3680.0	0.8798523
3681.0	0.8860729
3682.0	0.8927302
3683.0	0.8992751
3684.0	0.9064053
3685.0	0.9142889
3686.0	0.9220344
3687.0	0.9307244
3688.0	0.9385108
3689.0	0.9437549
3690.0	0.9476709
3691.0	0.9490081
3692.0	0.9483634
3693.0	0.9480643
3694.0	0.9482386
3695.0	0.949099
3696.0	0.9495173
3697.0	0.9481869
3698.0	0.9453673
3699.0	0.941803
3700.0	0.9390577
3701.0	0.9388187
3702.0	0.9408353
3703.0	0.9433768
3704.0	0.9467856
3705.0	0.9501817
3706.0	0.9532003
3707.0	0.9560329
3708.0	0.9574544
3709.0	0.9573104
3710.0	0.956059
3711.0	0.9535784
3712.0	0.9509563
3713.0	0.9495961
3714.0	0.9490926
3715.0	0.9500546
3716.0	0.9516508
3717.0	0.9523813
3718.0	0.9523981
3719.0	0.9514474
3720.0	0.9492506
3721.0	0.9464194
3722.0	0.9434601
3723.0	0.941002
3724.0	0.9393195
3725.0	0.938381
3726.0	0.937745
3727.0	0.9373907
3728.0	0.9368478
3729.0	0.9352081
3730.0	0.9325696
3731.0	0.9287544
3732.0	0.9242997
3733.0	0.9204445
3734.0	0.9167743
3735.0	0.9130569
3736.0	0.9087118
3737.0	0.9032183
3738.0	0.8970479
3739.0	0.8907794
3740.0	0.8836796
3741.0	0.8756522
3742.0	0.8674352
3743.0	0.8582751
3744.0	0.8496122
3745.0	0.8430879
3746.0	0.8387457
3747.0	0.8348278
3748.0	0.8317986
3749.0	0.8294392
3750.0	0.8284179
3751.0	0.8275234
3752.0	0.8278099
3753.0	0.8297657
3754.0	0.8327727
3755.0	0.8381847
3756.0	0.8468885
3757.0	0.8576672
3758.0	0.8684868
3759.0	0.88178
3760.0	0.8964523
3761.0	0.9103827
3762.0	0.9224512
3763.0	0.9351689
3764.0	0.9477472
3765.0	0.9600942
3766.0	0.9724254
3767.0	0.9838244
3768.0	0.9923813
3769.0	0.9972428
3770.0	1.0
3771.0	0.9994142
3772.0	0.9963481
3773.0	0.9934226
3774.0	0.9913705
3775.0	0.9890482
3776.0	0.9863123
3777.0	0.9828523
3778.0	0.9794428
3779.0	0.9750339
3780.0	0.9702587
3781.0	0.9662237
3782.0	0.9622068
3783.0	0.9589389
3784.0	0.9567841
3785.0	0.9554194
3786.0	0.9545676
3787.0	0.954715
3788.0	0.9556406
3789.0	0.9566997
3790.0	0.9578119
3791.0	0.9587964
3792.0	0.9603193
3793.0	0.9627008
3794.0	0.9656181
3795.0	0.968065
3796.0	0.9685902
3797.0	0.9667029
3798.0	0.9631718
3799.0	0.9598252
3800.0	0.9569253
3801.0	0.9548175
3802.0	0.9534016
3803.0	0.9521915
3804.0	0.9516268
3805.0	0.9516193
3806.0	0.9519017
3807.0	0.9526281
3808.0	0.9546064
3809.0	0.957861
3810.0	0.9619287
3811.0	0.9654598
3812.0	0.9682358
3813.0	0.9705005
3814.0	0.9722482
3815.0	0.9752138
3816.0	0.9790774
3817.0	0.9830666
3818.0	0.9871386
3819.0	0.9902978
3820.0	0.9909649
3821.0	0.9884936
3822.0	0.9835796
3823.0	0.9773962
3824.0	0.9715088
3825.0	0.9681633
3826.0	0.9669604
3827.0	0.967182
3828.0	0.9679332
3829.0	0.9673708
3830.0	0.9654551
3831.0	0.9621301
3832.0	0.9581781
3833.0	0.9549287
3834.0	0.9521858
3835.0	0.9505891
3836.0	0.9492816
3837.0	0.947229
3838.0	0.9452515
3839.0	0.9413233
3840.0	0.9353868
3841.0	0.9287221
3842.0	0.9216005
3843.0	0.9160745
3844.0	0.913147
3845.0	0.9122909
3846.0	0.9130312
3847.0	0.9127175
3848.0	0.9111649
3849.0	0.9087526
3850.0	0.9058367
3851.0	0.9038295
3852.0	0.9031243
3853.0	0.9036219
3854.0	0.9052702
3855.0	0.9069557
3856.0	0.9086121
3857.0	0.9099217
3858.0	0.9102696
3859.0	0.9112329
3860.0	0.9124716
3861.0	0.9135228
3862.0	0.9144024
3863.0	0.9158716
3864.0	0.9189149
3865.0	0.9239134
3866.0	0.9302025
3867.0	0.9368521
3868.0	0.9437429
3869.0	0.9503868
3870.0	0.9565387
3871.0	0.9630118
3872.0	0.9684077
3873.0	0.9715602
3874.0	0.9728644
3875.0	0.9738445
3876.0	0.9746837
3877.0	0.9762054
3878.0	0.9786828
3879.0	0.9811928
3880.0	0.9837605
3881.0	0.9860682
3882.0	0.9881735
3883.0	0.9886779
3884.0	0.9875458
3885.0	0.9858068
3886.0	0.9839113
3887.0	0.98252
3888.0	0.9819246
3889.0	0.9820268
3890.0	0.9826328
3891.0	0.9833726
3892.0	0.9847806
3893.0	0.9870895
3894.0	0.990186
3895.0	0.9928075
3896.0	0.9941394
3897.0	0.9938423
3898.0	0.9922352
3899.0	0.9901513
3900.0	0.9874669
3901.0	0.9844102
3902.0	0.9810931
3903.0	0.9780769
3904.0	0.9749847
3905.0	0.9716846
3906.0	0.9681634
3907.0	0.9638364
3908.0	0.9593608
3909.0	0.9551246
3910.0	0.9507423
3911.0	0.9459463
3912.0	0.9404899
3913.0	0.9345237
3914.0	0.9281292
3915.0	0.9204711
3916.0	0.9097067
3917.0	0.8954173
3918.0	0.878374
3919.0	0.8609549
3920.0	0.8433598
3921.0	0.8261456
3922.0	0.8095166
3923.0	0.7923489
3924.0	0.7746695
3925.0	0.7567137
3926.0	0.7382072
3927.0	0.7185341
3928.0	0.6975126
3929.0	0.6755761
3930.0	0.6527411
3931.0	0.6302029
3932.0	0.6079333
3933.0	0.5856135
3934.0	0.5633203
3935.0	0.5406136
3936.0	0.5174392
3937.0	0.4940885
3938.0	0.4705995
3939.0	0.4478176
3940.0	0.4254208
3941.0	0.4030416
3942.0	0.3811259
3943.0	0.3593992
3944.0	0.3389893
3945.0	0.3204809
3946.0	0.3033978
3947.0	0.2870611
3948.0	0.2716579
3949.0	0.2566937
3950.0	0.2419683
3951.0	0.2281852
3952.0	0.2155416
3953.0	0.2037181
3954.0	0.1926919
3955.0	0.18188
3956.0	0.1714848
3957.0	0.1614864
3958.0	0.1517405
3959.0	0.1426661
3960.0	0.1345138
3961.0	0.1270874
3962.0	0.1202644
3963.0	0.1136615
3964.0	0.107337
3965.0	0.1012122
3966.0	0.0952756
3967.0	0.0896634
3968.0	0.0845331
3969.0	0.0798083
3970.0	0.0753732
3971.0	0.071168
3972.0	0.0673074
3973.0	0.0637192
3974.0	0.060353
3975.0	0.05713
3976.0	0.0541167
3977.0	0.0512732
3978.0	0.0485497
3979.0	0.046001
3980.0	0.0436242
3981.0	0.0413271
3982.0	0.0391178
3983.0	0.0369593
3984.0	0.0349341
3985.0	0.0330777
3986.0	0.0313461
3987.0	0.0297185
3988.0	0.0282197
3989.0	0.0267974
3990.0	0.0254411
3991.0	0.0241352
3992.0	0.0229125
3993.0	0.0217667
3994.0	0.0206838
3995.0	0.0196908
3996.0	0.0187925
3997.0	0.0179408
3998.0	0.0171215
3999.0	0.0163173
4000.0	0.0155401
4001.0	0.0147906
4002.0	0.014065
4003.0	0.013356
4004.0	0.0126976
4005.0	0.012102
4006.0	0.011555
4007.0	0.0110519
4008.0	0.0105895
4009.0	0.0101418
;;
;; BAND I05
;;
10171.0	0.0100784
10172.0	0.010179
10173.0	0.010281
10174.0	0.010383
10175.0	0.010485
10176.0	0.0105871
10177.0	0.0106891
10178.0	0.0107932
10179.0	0.0108992
10180.0	0.0110052
10181.0	0.0111112
10182.0	0.0112173
10183.0	0.0113267
10184.0	0.011437
10185.0	0.0115473
10186.0	0.0116576
10187.0	0.011768
10188.0	0.0118783
10189.0	0.0119886
10190.0	0.0120989
10191.0	0.0122092
10192.0	0.0123196
10193.0	0.0124299
10194.0	0.0125402
10195.0	0.0126505
10196.0	0.0127608
10197.0	0.0128712
10198.0	0.0129815
10199.0	0.0130918
10200.0	0.0132021
10201.0	0.0133125
10202.0	0.0134228
10203.0	0.0135331
10204.0	0.0136434
10205.0	0.0137537
10206.0	0.0138641
10207.0	0.0139744
10208.0	0.0140847
10209.0	0.014195
10210.0	0.0143053
10211.0	0.0144157
10212.0	0.014526
10213.0	0.0146363
10214.0	0.0147466
10215.0	0.014857
10216.0	0.0149673
10217.0	0.0150776
10218.0	0.0151879
10219.0	0.0152982
10220.0	0.0154114
10221.0	0.0155271
10222.0	0.0156428
10223.0	0.0157585
10224.0	0.0158741
10225.0	0.0159898
10226.0	0.0161055
10227.0	0.0162212
10228.0	0.0163369
10229.0	0.0164526
10230.0	0.0165683
10231.0	0.016684
10232.0	0.0167997
10233.0	0.0169154
10234.0	0.017031
10235.0	0.0171467
10236.0	0.0172624
10237.0	0.0173781
10238.0	0.0174938
10239.0	0.0176095
10240.0	0.0177252
10241.0	0.0178409
10242.0	0.017963
10243.0	0.0181073
10244.0	0.0182833
10245.0	0.0184668
10246.0	0.0186582
10247.0	0.0188635
10248.0	0.0190746
10249.0	0.0193083
10250.0	0.0195499
10251.0	0.0197958
10252.0	0.0200497
10253.0	0.0203093
10254.0	0.0205722
10255.0	0.0208351
10256.0	0.021098
10257.0	0.021365
10258.0	0.0216374
10259.0	0.0219141
10260.0	0.0221908
10261.0	0.0224675
10262.0	0.0227442
10263.0	0.0230279
10264.0	0.0233136
10265.0	0.0235993
10266.0	0.023885
10267.0	0.0241707
10268.0	0.0244601
10269.0	0.02475
10270.0	0.025042
10271.0	0.0253383
10272.0	0.0256346
10273.0	0.0259308
10274.0	0.0262271
10275.0	0.0265233
10276.0	0.0268196
10277.0	0.0271159
10278.0	0.0274122
10279.0	0.0277085
10280.0	0.0280047
10281.0	0.028301
10282.0	0.0285973
10283.0	0.0288935
10284.0	0.0291898
10285.0	0.029486
10286.0	0.0297823
10287.0	0.0300786
10288.0	0.0303748
10289.0	0.0306711
10290.0	0.0309673
10291.0	0.0312636
10292.0	0.0315599
10293.0	0.0318561
10294.0	0.0321524
10295.0	0.0324486
10296.0	0.0327449
10297.0	0.0330441
10298.0	0.0333447
10299.0	0.0336453
10300.0	0.0339512
10301.0	0.0342619
10302.0	0.0345726
10303.0	0.0348833
10304.0	0.0351939
10305.0	0.0355046
10306.0	0.0358153
10307.0	0.036126
10308.0	0.0364366
10309.0	0.0367473
10310.0	0.037058
10311.0	0.0373687
10312.0	0.0376793
10313.0	0.03799
10314.0	0.0383007
10315.0	0.0386114
10316.0	0.038922
10317.0	0.0392327
10318.0	0.0395434
10319.0	0.039854
10320.0	0.0401647
10321.0	0.0404754
10322.0	0.0408036
10323.0	0.0411897
10324.0	0.0416549
10325.0	0.0421406
10326.0	0.0426469
10327.0	0.0431887
10328.0	0.0437451
10329.0	0.0443626
10330.0	0.0450037
10331.0	0.0456568
10332.0	0.0463299
10333.0	0.0470168
10334.0	0.0477118
10335.0	0.0484068
10336.0	0.0491017
10337.0	0.0498064
10338.0	0.050523
10339.0	0.051249
10340.0	0.051975
10341.0	0.0527011
10342.0	0.0534271
10343.0	0.054169
10344.0	0.0549155
10345.0	0.055662
10346.0	0.0564085
10347.0	0.057155
10348.0	0.057912
10349.0	0.0586704
10350.0	0.0594326
10351.0	0.0602023
10352.0	0.0609721
10353.0	0.0617418
10354.0	0.0625116
10355.0	0.0632813
10356.0	0.0640512
10357.0	0.064821
10358.0	0.0655907
10359.0	0.0663605
10360.0	0.0671302
10361.0	0.0679
10362.0	0.0686697
10363.0	0.0694395
10364.0	0.0702092
10365.0	0.070979
10366.0	0.0717487
10367.0	0.0725185
10368.0	0.0732882
10369.0	0.074058
10370.0	0.0748277
10371.0	0.0755975
10372.0	0.0763672
10373.0	0.077137
10374.0	0.0779067
10375.0	0.0786765
10376.0	0.0794463
10377.0	0.0802248
10378.0	0.0810076
10379.0	0.0817904
10380.0	0.0825842
10381.0	0.0833877
10382.0	0.0841911
10383.0	0.0849946
10384.0	0.085798
10385.0	0.0866015
10386.0	0.0874049
10387.0	0.0882083
10388.0	0.0890118
10389.0	0.0898152
10390.0	0.0906187
10391.0	0.0914221
10392.0	0.0922256
10393.0	0.093029
10394.0	0.0938325
10395.0	0.0946359
10396.0	0.0954394
10397.0	0.0962428
10398.0	0.0970463
10399.0	0.0978497
10400.0	0.0986532
10401.0	0.0994566
10402.0	0.1003005
10403.0	0.1012764
10404.0	0.1024343
10405.0	0.1036409
10406.0	0.1049004
10407.0	0.1062422
10408.0	0.1076192
10409.0	0.1091638
10410.0	0.1107754
10411.0	0.1124219
10412.0	0.1141168
10413.0	0.1158475
10414.0	0.1176023
10415.0	0.1193569
10416.0	0.1211115
10417.0	0.1228931
10418.0	0.1247024
10419.0	0.1265324
10420.0	0.1283625
10421.0	0.1301926
10422.0	0.1320226
10423.0	0.1338866
10424.0	0.1357604
10425.0	0.1376343
10426.0	0.1395081
10427.0	0.1413819
10428.0	0.1432855
10429.0	0.1451929
10430.0	0.1471115
10431.0	0.1490527
10432.0	0.1509939
10433.0	0.152935
10434.0	0.1548762
10435.0	0.1568174
10436.0	0.1587586
10437.0	0.1606998
10438.0	0.1626409
10439.0	0.1645821
10440.0	0.1665233
10441.0	0.1684644
10442.0	0.1704056
10443.0	0.1723467
10444.0	0.174288
10445.0	0.1762292
10446.0	0.1781703
10447.0	0.1801115
10448.0	0.1820527
10449.0	0.1839938
10450.0	0.185935
10451.0	0.1878762
10452.0	0.1898173
10453.0	0.1917586
10454.0	0.1936997
10455.0	0.1956409
10456.0	0.1975821
10457.0	0.199546
10458.0	0.2015212
10459.0	0.2034964
10460.0	0.2054955
10461.0	0.2075162
10462.0	0.209537
10463.0	0.2115577
10464.0	0.2135784
10465.0	0.2155991
10466.0	0.2176198
10467.0	0.2196405
10468.0	0.2216612
10469.0	0.2236819
10470.0	0.2257026
10471.0	0.2277234
10472.0	0.2297442
10473.0	0.2317649
10474.0	0.2337856
10475.0	0.2358063
10476.0	0.237827
10477.0	0.2398477
10478.0	0.2418684
10479.0	0.2438891
10480.0	0.2459098
10481.0	0.2479306
10482.0	0.249982
10483.0	0.2521332
10484.0	0.2544189
10485.0	0.2567539
10486.0	0.2591578
10487.0	0.2616353
10488.0	0.2641495
10489.0	0.2669089
10490.0	0.2697757
10491.0	0.272698
10492.0	0.2756725
10493.0	0.2786917
10494.0	0.281749
10495.0	0.2848063
10496.0	0.2878637
10497.0	0.290964
10498.0	0.2940887
10499.0	0.2972284
10500.0	0.300368
10501.0	0.3035077
10502.0	0.3066474
10503.0	0.3098098
10504.0	0.3129787
10505.0	0.3161476
10506.0	0.3193166
10507.0	0.3224856
10508.0	0.3257013
10509.0	0.3289232
10510.0	0.3321624
10511.0	0.3354368
10512.0	0.3387111
10513.0	0.3419854
10514.0	0.3452597
10515.0	0.348534
10516.0	0.3518083
10517.0	0.3550826
10518.0	0.358357
10519.0	0.3616313
10520.0	0.3649056
10521.0	0.3681799
10522.0	0.3714542
10523.0	0.3747286
10524.0	0.3780029
10525.0	0.3812772
10526.0	0.3845515
10527.0	0.3878258
10528.0	0.3911001
10529.0	0.3943745
10530.0	0.3976488
10531.0	0.4009231
10532.0	0.4041974
10533.0	0.4074717
10534.0	0.4107461
10535.0	0.4140204
10536.0	0.4172947
10537.0	0.4206051
10538.0	0.4239333
10539.0	0.4272616
10540.0	0.4306037
10541.0	0.4339581
10542.0	0.4373126
10543.0	0.4406671
10544.0	0.4440216
10545.0	0.4473761
10546.0	0.4507306
10547.0	0.4540851
10548.0	0.4574396
10549.0	0.4607941
10550.0	0.4641485
10551.0	0.4675031
10552.0	0.4708576
10553.0	0.4742121
10554.0	0.4775665
10555.0	0.480921
10556.0	0.4842755
10557.0	0.4876301
10558.0	0.4909846
10559.0	0.494339
10560.0	0.4976935
10561.0	0.501048
10562.0	0.5043882
10563.0	0.5076825
10564.0	0.5109075
10565.0	0.5141265
10566.0	0.5173585
10567.0	0.5205793
10568.0	0.5238011
10569.0	0.5270982
10570.0	0.5304348
10571.0	0.5337944
10572.0	0.5371581
10573.0	0.5405318
10574.0	0.543922
10575.0	0.5473122
10576.0	0.5507025
10577.0	0.554112
10578.0	0.5575171
10579.0	0.5609144
10580.0	0.5643117
10581.0	0.5677091
10582.0	0.5711064
10583.0	0.5744898
10584.0	0.5778689
10585.0	0.581248
10586.0	0.5846273
10587.0	0.5880065
10588.0	0.5914043
10589.0	0.5948046
10590.0	0.5982119
10591.0	0.6016335
10592.0	0.6050552
10593.0	0.6084768
10594.0	0.6118984
10595.0	0.6153201
10596.0	0.6187418
10597.0	0.6221634
10598.0	0.6255851
10599.0	0.6290067
10600.0	0.6324283
10601.0	0.63585
10602.0	0.6392716
10603.0	0.6426933
10604.0	0.6461149
10605.0	0.6495366
10606.0	0.6529582
10607.0	0.6563798
10608.0	0.6598015
10609.0	0.6632231
10610.0	0.6666448
10611.0	0.6700665
10612.0	0.6734881
10613.0	0.6769097
10614.0	0.6803315
10615.0	0.6837531
10616.0	0.6871747
10617.0	0.6906082
10618.0	0.6940476
10619.0	0.6974869
10620.0	0.7009142
10621.0	0.7043307
10622.0	0.7077471
10623.0	0.7111635
10624.0	0.7145801
10625.0	0.7179964
10626.0	0.7214128
10627.0	0.7248293
10628.0	0.7282457
10629.0	0.7316622
10630.0	0.7350786
10631.0	0.7384951
10632.0	0.7419115
10633.0	0.7453279
10634.0	0.7487444
10635.0	0.7521608
10636.0	0.7555773
10637.0	0.7589937
10638.0	0.7624102
10639.0	0.7658266
10640.0	0.7692431
10641.0	0.7726594
10642.0	0.7760397
10643.0	0.7793056
10644.0	0.7824136
10645.0	0.7854661
10646.0	0.7884436
10647.0	0.7913374
10648.0	0.7941902
10649.0	0.7967842
10650.0	0.79927
10651.0	0.8017041
10652.0	0.8040811
10653.0	0.8064115
10654.0	0.8087051
10655.0	0.8109989
10656.0	0.8132926
10657.0	0.8155423
10658.0	0.8177609
10659.0	0.8199589
10660.0	0.8221567
10661.0	0.8243545
10662.0	0.8265523
10663.0	0.8287159
10664.0	0.8308696
10665.0	0.8330234
10666.0	0.8351772
10667.0	0.8373309
10668.0	0.8394334
10669.0	0.8415293
10670.0	0.8436068
10671.0	0.8456472
10672.0	0.8476874
10673.0	0.8497277
10674.0	0.8517681
10675.0	0.8538083
10676.0	0.8558486
10677.0	0.8578889
10678.0	0.8599292
10679.0	0.8619695
10680.0	0.8640097
10681.0	0.8660502
10682.0	0.8680904
10683.0	0.8701307
10684.0	0.872171
10685.0	0.8742113
10686.0	0.8762516
10687.0	0.8782918
10688.0	0.8803321
10689.0	0.8823724
10690.0	0.8844127
10691.0	0.886453
10692.0	0.8884933
10693.0	0.8905336
10694.0	0.8925739
10695.0	0.8946142
10696.0	0.8966544
10697.0	0.8986539
10698.0	0.9006333
10699.0	0.9026126
10700.0	0.9045683
10701.0	0.9065025
10702.0	0.9084369
10703.0	0.9103712
10704.0	0.9123055
10705.0	0.9142398
10706.0	0.916174
10707.0	0.9181083
10708.0	0.9200427
10709.0	0.921977
10710.0	0.9239112
10711.0	0.9258454
10712.0	0.9277798
10713.0	0.9297141
10714.0	0.9316483
10715.0	0.9335826
10716.0	0.935517
10717.0	0.9374512
10718.0	0.9393855
10719.0	0.9413199
10720.0	0.9432542
10721.0	0.9451885
10722.0	0.9470846
10723.0	0.9488501
10724.0	0.9504399
10725.0	0.9519774
10726.0	0.9534479
10727.0	0.9548258
10728.0	0.9561607
10729.0	0.9572684
10730.0	0.9582769
10731.0	0.9592316
10732.0	0.9601234
10733.0	0.9609649
10734.0	0.9617677
10735.0	0.9625703
10736.0	0.963373
10737.0	0.9641297
10738.0	0.9648532
10739.0	0.9655541
10740.0	0.9662549
10741.0	0.9669557
10742.0	0.9676565
10743.0	0.9683219
10744.0	0.9689772
10745.0	0.9696324
10746.0	0.9702877
10747.0	0.970943
10748.0	0.971548
10749.0	0.9721464
10750.0	0.9727271
10751.0	0.9732713
10752.0	0.9738156
10753.0	0.9743598
10754.0	0.9749039
10755.0	0.9754483
10756.0	0.9759924
10757.0	0.9765367
10758.0	0.9770809
10759.0	0.9776252
10760.0	0.9781694
10761.0	0.9787137
10762.0	0.9792579
10763.0	0.9798021
10764.0	0.9803463
10765.0	0.9808905
10766.0	0.9814348
10767.0	0.981979
10768.0	0.9825231
10769.0	0.9830675
